time,x0,x1,x2,x3,x4,x5,x6,id
0,560.0,0.0,0.0,0.0,500.0,0.0,0.0,0
0.1,559.5406705882739,0.007167827873646507,0.0054518763813756355,0.10440997529979348,499.9383453485465,0.0,-0.10894746824395389,0
0.2,559.1120650976737,0.01989956784847072,0.019598469473175353,0.17121269956832422,499.86708019458104,0.0,-0.18148347100629014,0
0.30000000000000004,558.6753303813543,0.03416922380440394,0.038220104331540834,0.19395007453537597,499.9594845117387,0.0,-0.21611361665095988,0
0.4,558.1854947184725,0.04666280877559877,0.05716537983352224,0.18006182770078197,500.3586839036139,0.0,-0.2169914952955219,0
0.5,557.625302224052,0.05539465554640074,0.07341348519050894,0.14184544757984116,501.1514534216698,0.0,-0.1916264281593571,0
0.6,557.0102995086019,0.059530184441004726,0.08515397589376891,0.09226888435821462,502.3694419574296,0.0,-0.1484697862401394,0
0.7,556.3701330403102,0.05922429034001765,0.09180418082833369,0.04116436498718591,503.99354485304946,0.0,-0.09553068889822412,0
0.7999999999999999,555.7344148154871,0.05523216774572467,0.09358412445136696,-0.004167758585826353,505.97167163846257,0.0,-0.04000831131802694,0
0.8999999999999999,555.1195969976286,0.04857203927517991,0.09126565241365152,-0.040199323730118766,508.22944745732394,0.0,0.012967642078244884,0
0.9999999999999999,554.5317050901662,0.040380998332008304,0.08589433688767917,-0.06524475539654745,510.6829571364851,0.0,0.059488615978609646,0
1.0999999999999999,553.9684192703437,0.031727845639916305,0.07859447224316764,-0.07933318325843222,513.2476269646276,0.0,0.09714522705090937,0
1.2,553.4187458357935,0.023393281627607135,0.0703257994466948,-0.08401913656229587,515.850274159552,0.0,0.12521459858291714,0
1.3,552.8781412803401,0.01603360357621566,0.06197719815741585,-0.08117725092839846,518.4239864743172,0.0,0.14386331146334408,0
1.4000000000000001,552.3439630493422,0.01009503988211866,0.05426928304285808,-0.07320299168341945,520.9140608177639,0.0,0.15412610228779622,0
1.5000000000000002,551.812287899004,0.005646713646318435,0.047517406553622306,-0.06218118130321931,523.2887582075198,0.0,0.15758929293613197,0
1.6000000000000003,551.2840200003767,0.002635773657528198,0.0418952505973601,-0.049900364292274305,525.5268195433041,0.0,0.15603979421796324,0
1.7000000000000004,550.7627097507958,0.0009504206094454919,0.037504361780435674,-0.038210730153843665,527.6150461412235,0.0,0.15131978632642804,0
1.8000000000000005,550.2502619738311,0.00033412253568915727,0.034225869492381114,-0.02803002383506785,529.5526849518302,0.0,0.14495463337675674,0
1.9000000000000006,549.7478906653031,0.0005008125897307525,0.03185754802270244,-0.019765150628531254,531.3456272508521,0.0,0.13808681407062745,0
2.0000000000000004,549.2563443127807,0.0011860578610801257,0.030195689613305647,-0.013825849427485243,533.0031297969492,0.0,0.13161215825556552,0
2.1000000000000005,548.7752607393746,0.002153766530037167,0.02901774813421886,-0.01004967171669081,534.5360399842277,0.0,0.12599225020843766,0
2.2000000000000006,548.303580643619,0.003229563232655805,0.02813225475683583,-0.007972849278992273,535.954714624662,0.0,0.12131705408778483,0
2.3000000000000007,547.8405794455717,0.00428009869265626,0.027383107697232543,-0.007189579783628697,537.2694450094143,0.0,0.11756452121613858,0
2.400000000000001,547.3853656382227,0.005229205488566969,0.026663645805555122,-0.007222481241728988,538.4885074273251,0.0,0.11455084041743414,0
2.500000000000001,546.9371920203638,0.006051538895929969,0.025921342604351198,-0.007662661386415875,539.6179750752344,0.0,0.11203806742796756,0
2.600000000000001,546.4954721541765,0.00674655063524359,0.025129827160337667,-0.008163124522421905,540.6632621851171,0.0,0.10976750013169377,0
2.700000000000001,546.0597711091198,0.0073357948003809105,0.024294050600732975,-0.008493776118314549,541.6283713239437,0.0,0.10753141338652905,0
2.800000000000001,545.6297955982493,0.007847982761957218,0.023436427677845866,-0.008543171089542579,542.5164589877279,0.0,0.10521238423579461,0
2.9000000000000012,545.2052987080771,0.008320645517236287,0.022590515363731425,-0.008273627440315531,543.3305158313304,0.0,0.10270143892798267,0
3.0000000000000013,544.7860826286976,0.008788469369453775,0.021792417077012183,-0.007713309088980289,544.0733641320829,0.0,0.09995110710068068,0
3.1000000000000014,544.3719379453123,0.00926527475935654,0.02106210158497411,-0.006917139912728155,544.7483058775617,0.0,0.09700891044497006,0
3.2000000000000015,543.9626455245965,0.009758876946699458,0.020413269244393576,-0.0059546910060948935,545.3589678685082,0.0,0.09393572076487215,0
3.3000000000000016,543.5579935600713,0.010282956094630346,0.01986592601777981,-0.004951814912284049,545.9088970262902,0.0,0.09078083376838035,0
3.4000000000000017,543.1577309339859,0.01083692071854684,0.019424327131539694,-0.003991787948031086,546.4020590433215,0.0,0.08761697214095035,0
3.5000000000000018,542.7615563329853,0.011405543561545257,0.01907423179436674,-0.0030834413952015288,546.8429388128571,0.0,0.08452062863935718,0
3.600000000000002,542.3691743207102,0.011979706250904193,0.018806659845796138,-0.002264436840103065,547.2358324880468,0.0,0.08154351643910816,0
3.700000000000002,541.9802955074072,0.012553187199412983,0.018615012645592937,-0.0015926254171430925,547.5848963403525,0.0,0.0787235615203205,0
3.800000000000002,541.5946252146426,0.013115084092140968,0.01848513259860359,-0.0010625270413443712,547.8942449698117,0.0,0.07608881342605035,0
3.900000000000002,541.2118777469591,0.013654604024607761,0.018401002112860693,-0.0006339619334669823,548.1677925964019,0.0,0.07365206263001846,0
4.000000000000002,540.8317964075707,0.014167598661852097,0.018353948421852367,-0.00031488561834042475,548.4091527531464,0.0,0.0714110250984186,0
4.100000000000001,540.4541436026475,0.01465029354231695,0.01833485417139966,-9.23170919442677e-05,548.6216810879669,0.0,0.06935675498629208,0
4.200000000000001,540.0787056158334,0.015099279502857674,0.018334607098518894,7.201063092029639e-05,548.8083935907811,0.0,0.06747891683211814,0
4.300000000000001,539.705294382516,0.015514383533178397,0.018347824887632463,0.000197768560423903,548.972017448008,0.0,0.0657611358166217,0
4.4,539.3337456165104,0.01589821750037311,0.018372393914541277,0.00028710065985490004,549.1150137784447,0.0,0.064181824780159,0
4.5,538.9639122323956,0.01625227061455026,0.018405411802060605,0.0003566172972561787,549.2395930408518,0.0,0.06272605484405622,0
4.6,538.5956640119775,0.016577816012595756,0.018444250372624618,0.00042537158471779677,549.3477362608126,0.0,0.06138319470124654,0
4.699999999999999,538.2288889140228,0.016878915853776145,0.018489700119485118,0.0004875145909886945,549.4412160931868,0.0,0.060137290909594715,0
4.799999999999999,537.8634859189433,0.017158525290608524,0.018541787615535377,0.0005432985125020114,549.5216363043097,0.0,0.05897754315643695,0
4.899999999999999,537.4993619052855,0.01741790016176081,0.018599076633483154,0.0006014035633782117,549.5904710897197,0.0,0.05789886489743995,0
4.999999999999998,537.1364356303274,0.01765945121937975,0.018661693835600165,0.0006585206199377937,549.6490395842303,0.0,0.05689416508246738,0
5.099999999999998,536.7746349815533,0.017885716843577867,0.01873021379412889,0.0007070014440730318,549.6985267718635,0.0,0.05595692899177154,0
5.1999999999999975,536.4138922933919,0.018097627945909495,0.018803582528696555,0.0007492857043339808,549.7400352563773,0.0,0.055083950638013274,0
5.299999999999997,536.0541460338388,0.018295585053142136,0.018880291118369457,0.0007904403129039258,549.7745719969581,0.0,0.054272828267573424,0
5.399999999999997,535.695344122615,0.018481474458205343,0.01896070513827519,0.000821989519321911,549.8030161775347,0.0,0.05351817696458643,0
5.4999999999999964,535.3374387409825,0.018656339966903464,0.019044353614014763,0.0008414070255873402,549.8261713977715,0.0,0.05281609959262584,0
5.599999999999996,534.9803855846008,0.01882016978286661,0.019129609443022385,0.0008555263617852524,549.8447757496309,0.0,0.05216423886895417,0
5.699999999999996,534.6241461463916,0.01897334108085858,0.019215388879244615,0.0008681796633050716,549.8594811722525,0.0,0.051559278789520886,0
5.799999999999995,534.2686887651236,0.01911747132777686,0.019302170902248943,0.0008718546518636406,549.8708457025137,0.0,0.05099543809338534,0
5.899999999999995,533.9139843868194,0.019253367397908058,0.01938959419583904,0.0008662219196064193,549.8793737478334,0.0,0.050468574168790324,0
5.999999999999995,533.5600062544295,0.019380943334833825,0.019476359553515107,0.0008592520975859392,549.8855190432078,0.0,0.04997646120591244,0
6.099999999999994,533.2067315273404,0.019500432365478798,0.019561635320018787,0.0008561707494384941,549.8896744823905,0.0,0.049516364226709096,0
6.199999999999994,532.8541429946663,0.019613608128832453,0.019646454427930775,0.0008485934216643742,549.8921612894898,0.0,0.04908240116750118,0
6.299999999999994,532.5022246665311,0.019721444272154456,0.01973103806291172,0.0008346509613761721,549.8932660890284,0.0,0.048670652018232036,0
6.399999999999993,532.1509611245626,0.019823912926501503,0.019814577257506145,0.0008204227106742302,549.8932476395978,0.0,0.048279729349023345,0
6.499999999999993,531.8003384826377,0.01992065930188181,0.019895984372410247,0.0008142881517100203,549.8923318214606,0.0,0.04790919967869221,0
6.5999999999999925,531.4503478714659,0.0200133163350431,0.019976481635311447,0.0008077604144175697,549.8906903549804,0.0,0.047554267811701835,0
6.699999999999992,531.1009811846377,0.020103016374824714,0.020056811052444154,0.000795988948014717,549.8884713747545,0.0,0.04721150005830922,0
6.799999999999992,530.7522297555669,0.020189828448679756,0.020136590179027736,0.0007821315171954758,549.8858131594997,0.0,0.04688001114145821,0
6.8999999999999915,530.4040846925234,0.020272981144758697,0.020214557942757193,0.0007755870960339568,549.8828422742658,0.0,0.0465609377369659,0
6.999999999999991,530.0565408144231,0.020353369127184644,0.02029135644188654,0.0007721450983159936,549.8796487834608,0.0,0.04625165849659265,0
7.099999999999991,529.7095943804042,0.020432210516537125,0.02036804674766547,0.0007645601151342772,549.8763014270961,0.0,0.04594897997982823,0
7.19999999999999,529.3632406835891,0.020509713674432432,0.0204445995328802,0.0007533064897267136,549.8728674087304,0.0,0.04565203530760769,0
7.29999999999999,529.0174741722049,0.020585170381864987,0.020519995003879018,0.0007458655014193781,549.8694120840131,0.0,0.04536204634466188,0
7.39999999999999,528.6722909734239,0.0206585744176032,0.02059402078833969,0.0007440010430115106,549.8659832054761,0.0,0.045078647874644426,0
7.499999999999989,528.3276896563303,0.020731133332312395,0.020667850994032018,0.0007396234901023981,549.8626058106992,0.0,0.04479881910059994,0
7.599999999999989,527.9836678381133,0.02080321771442967,0.020741751721995456,0.0007310636963630352,549.8593061329713,0.0,0.044521469906059936,0
7.699999999999989,527.6402222121068,0.02087440444734402,0.02081512336176078,0.000722788604485479,549.8561121233612,0.0,0.04424730930436549,0
7.799999999999988,527.2973493536142,0.020944002550958553,0.020887083795616917,0.0007212751437819725,549.8530486749171,0.0,0.043977650350151005,0
7.899999999999988,526.9550486892646,0.021012979726708694,0.020958611772175447,0.0007198806076186957,549.8501194210236,0.0,0.04371009430725784,0
7.999999999999988,526.6133193436478,0.021081976381817465,0.02103034120312142,0.000714397459090194,549.8473266700599,0.0,0.043443043649944724,0
8.099999999999987,526.2721594004211,0.021150872851341696,0.021102073906695714,0.0007064437922788564,549.8446769834848,0.0,0.04317663323550675,0
8.199999999999987,525.931565982688,0.021218842727444846,0.021172838398480717,0.0007030478721476072,549.8421807383792,0.0,0.04291260667664899,0
8.299999999999986,525.59153769744,0.021285944104558894,0.021242649675662653,0.0007043263799356022,549.8398380059284,0.0,0.0426506945583006,0
8.399999999999986,525.2520747532715,0.021353204159781664,0.021312608832922603,0.0007028440749677774,549.8376375534417,0.0,0.04238849903265392,0
8.499999999999986,524.9131762271236,0.021420884588870554,0.02138297829762013,0.0006969783185745892,549.8355737641984,0.0,0.042125378462746006,0
8.599999999999985,524.5748400574927,0.021488484456102304,0.02145318305373885,0.0006908828993651028,549.8336469231691,0.0,0.041862419957268145,0
8.699999999999985,524.2370635751608,0.021555084759156212,0.021522189907161607,0.0006918601107870314,549.8318602712611,0.0,0.041601647906142195,0
8.799999999999985,523.8998467903,0.021621483340620435,0.021590863790623863,0.0006940910450467116,549.8302013334251,0.0,0.04134119593923203,0
8.899999999999984,523.5631896626667,0.021688436120218126,0.02166003226730406,0.000692027967793729,549.8286572262006,0.0,0.04107935464691239,0
8.999999999999984,523.2270908927269,0.02175588079264722,0.02172962307113619,0.0006862832501526912,549.8272220305282,0.0,0.04081626232807588,0
9.099999999999984,522.8915479781563,0.02182297372614311,0.021798704380152856,0.0006833468464654499,549.8258965045198,0.0,0.04055381625056116,0
9.199999999999983,522.556559019033,0.021889262474373897,0.02186677384526115,0.0006867472218752881,549.8246782659886,0.0,0.040292998688551525,0
9.299999999999983,522.2221244904102,0.02195584141139174,0.021935036752187633,0.0006883395675638303,549.8235516681644,0.0,0.04003133027116588,0
9.399999999999983,521.8882437502924,0.022023087085474756,0.02200391214632364,0.000685348507051211,549.8225071048778,0.0,0.03976798233010963,0
9.499999999999982,521.554914994643,0.022090628772946486,0.022072996714803523,0.0006805805815411264,549.8215415073981,0.0,0.03950379950755199,0
9.599999999999982,521.2221354671005,0.02215748456087393,0.02214121394927102,0.0006814079809464348,549.8206572452943,0.0,0.03924098797312434,0
9.699999999999982,520.8899045111565,0.02222404314205603,0.022208992083710875,0.0006849753479009588,549.8198457243219,0.0,0.03897864019550655,0
9.799999999999981,520.5582221230688,0.022291127499108082,0.022277242483065472,0.0006851754095823974,549.8190946406052,0.0,0.03871492904260372,0
9.89999999999998,520.2270871180838,0.022358804569140717,0.022346045886151498,0.0006815052479564893,549.818398244191,0.0,0.03844972560774909,0
9.99999999999998,519.8964972341589,0.02242645243650494,0.022414725146165642,0.0006785621226037784,549.8177568610972,0.0,0.03818443443879808,0
10.09999999999998,519.5664500224236,0.022493335571404045,0.022482475501231464,0.0006817926568819949,549.8171722433702,0.0,0.037920687477470974,0
10.19999999999998,519.236945517859,0.02256033239051987,0.022550264877421435,0.0006847295424603673,549.8166330696719,0.0,0.037656505715494476,0
10.29999999999998,518.9079831660679,0.022627950805044816,0.022618658698427493,0.000683623259438568,549.8161310541336,0.0,0.03739078551985635,0
10.399999999999979,518.57956135835,0.022696026665095684,0.02268748362743069,0.0006796515534778605,549.8156638049261,0.0,0.03712391265455433,0
10.499999999999979,518.2516774605355,0.022763742319605932,0.022755847795040474,0.0006787825102148135,549.8152346813278,0.0,0.036857719015501444,0
10.599999999999978,517.9243296920923,0.02283083273073858,0.022823461513098133,0.0006829594516398136,549.8148429927523,0.0,0.03659276599568186,0
10.699999999999978,517.5975181671513,0.022898258282062132,0.022891382560693705,0.0006851773439585818,549.814477957005,0.0,0.03632692307552826,0
10.799999999999978,517.2712419965976,0.022966342713508864,0.022959972629643558,0.0006830563367886918,549.8141341081099,0.0,0.036059498846517254,0
10.899999999999977,516.9454992463177,0.02303474482074568,0.0230288633490236,0.0006790407511013915,549.8138117191351,0.0,0.035791268615693095,0
10.999999999999977,516.6202870440582,0.023102526511115606,0.02309703053391149,0.0006799068440673504,549.8135162637394,0.0,0.03552431973316724,0
11.099999999999977,516.2956042708677,0.02316987070997034,0.02316467397070573,0.0006843416278821365,549.8132444790942,0.0,0.03525821154136515,0
11.199999999999976,515.9714509258283,0.02323768169555966,0.023232788305190405,0.0006858159599877781,549.8129870711851,0.0,0.034990955694106415,0
11.299999999999976,515.6478258730887,0.023306143686384524,0.023301580562632068,0.0006829769906112208,549.8127407038077,0.0,0.03472216838217749,0
11.399999999999975,515.3247269153421,0.02337476670846243,0.023370518806495474,0.0006793134980958868,549.8125077192658,0.0,0.0344529494257871,0
11.499999999999975,515.0021511343363,0.023442602393967452,0.023438567378631592,0.0006816114043098087,549.8122944464343,0.0,0.03418539538327794,0
11.599999999999975,514.6800980064627,0.023510222707269927,0.023506350301044133,0.0006857923627990953,549.8120952589392,0.0,0.03391820679012763,0
11.699999999999974,514.3585672926157,0.023578385910873842,0.023574700726366013,0.0006864361275923116,549.8119027748414,0.0,0.03364973017150148,0
11.799999999999974,514.037557628662,0.02364713852543876,0.023643673660564492,0.0006831856376072954,549.8117154413999,0.0,0.03337988350650815,0
11.899999999999974,513.7170666117099,0.02371586964416063,0.02371260457788172,0.0006803573451283089,549.8115371482784,0.0,0.03311002674098739,0
11.999999999999973,513.3970915296713,0.023783770493363676,0.023780609877486387,0.0006836860979436117,549.8113736527333,0.0,0.032841930978681405,0
12.099999999999973,513.0776322705311,0.023851671803385457,0.02384859530069317,0.0006873066912473629,549.8112177419622,0.0,0.032573738392511806,0
12.199999999999973,512.7586883107112,0.023920148874077174,0.023917192828502413,0.0006871470171556295,549.8110639494852,0.0,0.03230420821730538,0
12.299999999999972,512.4402580948149,0.023989127626291344,0.023986324816395455,0.000683705012869121,549.8109121212805,0.0,0.03203352088804487,0
12.399999999999972,512.1223390762912,0.024057910122074148,0.024055231606634506,0.0006818677151734254,549.8107672302997,0.0,0.03176321877831648,0
12.499999999999972,511.80492889914603,0.024125913110076443,0.024123275022597028,0.0006857356052823035,549.8106336351998,0.0,0.03149455906848051,0
12.599999999999971,511.4880276173176,0.02419406132151287,0.024191462785300714,0.0006888494001197021,549.8105036168155,0.0,0.031225496601409393,0
12.69999999999997,511.1716345152727,0.02426280128124901,0.024260285293382616,0.000688079950528491,549.8103730159406,0.0,0.030955078652965023,0
12.79999999999997,510.8557479105862,0.024331975157679826,0.024329573061498844,0.0006845045992816678,549.8102426154094,0.0,0.030683666171932605,0
12.89999999999997,510.54036516006823,0.02440082457854435,0.024398500850088607,0.0006833804350925786,549.8101181120417,0.0,0.030412925033773287,0
12.99999999999997,510.2254842093167,0.024468950428966248,0.024466630736998604,0.0006874919639922955,549.810002648353,0.0,0.03014369637130287,0
13.09999999999997,509.91110516156664,0.02453729286243321,0.02453498635835968,0.0006903453997564089,549.8098885314907,0.0,0.029873917670733177,0
13.199999999999969,509.59722723090556,0.02460624330289138,0.024603997061279484,0.0006892266625369536,549.8097722313587,0.0,0.029602759027777464,0
13.299999999999969,509.2838486714627,0.02467559774727348,0.024673442985369037,0.0006855203067649944,549.809655047184,0.0,0.029330679925986848,0
13.399999999999968,508.97096678013895,0.024744558434328604,0.02474245686629384,0.0006846980829574606,549.8095430951282,0.0,0.02905942546605263,0
13.499999999999968,508.65857965306276,0.024812812074092527,0.02481069419867697,0.0006889286448528161,549.8094389623592,0.0,0.028789643308367058,0
13.599999999999968,508.346687441256,0.024881310452418547,0.024879189753495075,0.00069171118315782,549.8093350161748,0.0,0.028519254827349915,0
13.699999999999967,508.03528935021234,0.024950426625930094,0.024948352001187505,0.0006904874187343258,549.8092280031159,0.0,0.02824747191589505,0
13.799999999999967,507.72438362049303,0.02501993993910734,0.02501794314166428,0.0006867410520861353,549.8091194252862,0.0,0.027974788636655677,0
13.899999999999967,507.4139675314525,0.025089038281635286,0.025087081540168546,0.0006859824638376471,549.8090155237979,0.0,0.02770297614066172,0
